TBJ_JFET  -THD
Vin = 0.04*sen(2*PI*1000.0*t) + 0.04*sen(2*PI*1200.0*t)
Is = 1.00e-11  Idss = 2.00
Vt = 0.026     Vp   = -2.00
Tensiones de polarización
Vbe = 0.790
Vgs = -0.600
Resolución de ploteo = 400.0 puntos por período

t [s]   	Vin [V] 	Ic [mA] 	Id [mA] 	
 0.000000	 0.000000	 156.199570	 1.580000
 0.000012	 0.006903	 203.928055	 1.582785
 0.000025	 0.013753	 265.630188	 1.585596
 0.000037	 0.020497	 344.534027	 1.588409
 0.000050	 0.027086	 444.120819	 1.591201
 0.000062	 0.033467	 567.885498	 1.593947
 0.000075	 0.039593	 718.970825	 1.596621
 0.000087	 0.045416	 899.669800	 1.599198
 0.000100	 0.050893	 1110.822021	 1.601652
 0.000112	 0.055982	 1351.161377	 1.603960
 0.000125	 0.060645	 1616.712280	 1.606097
 0.000137	 0.064846	 1900.365967	 1.608041
 0.000150	 0.068554	 2191.780273	 1.609771
 0.000162	 0.071741	 2477.717529	 1.611270
 0.000175	 0.074384	 2742.897217	 1.612520
 0.000187	 0.076463	 2971.316406	 1.613508
 0.000200	 0.077963	 3147.905029	 1.614224
 0.000212	 0.078875	 3260.281006	 1.614661
 0.000225	 0.079192	 3300.294434	 1.614812
 0.000237	 0.078913	 3265.091553	 1.614679
 0.000250	 0.078042	 3157.483887	 1.614262
 0.000262	 0.076587	 2985.551514	 1.613567
 0.000275	 0.074560	 2761.565430	 1.612603
 0.000287	 0.071978	 2500.441406	 1.611382
 0.000300	 0.068863	 2218.006592	 1.609916
 0.000312	 0.065240	 1929.371582	 1.608224
 0.000325	 0.061137	 1647.638794	 1.606324
 0.000337	 0.056589	 1383.082153	 1.604237
 0.000350	 0.051631	 1142.814209	 1.601985
 0.000362	 0.046302	 930.887817	 1.599593
 0.000375	 0.040645	 748.703857	 1.597084
 0.000388	 0.034704	 595.592896	 1.594484
 0.000400	 0.028525	 469.443909	 1.591817
 0.000413	 0.022157	 367.287567	 1.589108
 0.000425	 0.015648	 285.778473	 1.586382
 0.000438	 0.009050	 221.552856	 1.583661
 0.000450	 0.002413	 171.466217	 1.580968
 0.000463	-0.004212	 132.727051	 1.578324
 0.000475	-0.010774	 102.952644	 1.575749
 0.000488	-0.017223	 80.170753	 1.573259
 0.000500	-0.023511	 62.788204	 1.570872
 0.000513	-0.029591	 49.543209	 1.568601
 0.000525	-0.035416	 39.451881	 1.566461
 0.000538	-0.040944	 31.756685	 1.564461
 0.000550	-0.046134	 25.880049	 1.562611
 0.000562	-0.050947	 21.384958	 1.560919
 0.000575	-0.055351	 17.942745	 1.559392
 0.000587	-0.059312	 15.307411	 1.558034
 0.000600	-0.062803	 13.295666	 1.556851
 0.000612	-0.065800	 11.771693	 1.555845
 0.000625	-0.068284	 10.635641	 1.555018
 0.000637	-0.070239	 9.815140	 1.554371
 0.000650	-0.071652	 9.259118	 1.553906
 0.000662	-0.072517	 8.933422	 1.553622
 0.000675	-0.072831	 8.817884	 1.553520
 0.000687	-0.072595	 8.904533	 1.553597
 0.000700	-0.071815	 9.196796	 1.553853
 0.000712	-0.070501	 9.709582	 1.554285
 0.000725	-0.068666	 10.470260	 1.554891
 0.000737	-0.066329	 11.520502	 1.555668
 0.000750	-0.063512	 12.919202	 1.556612
 0.000762	-0.060239	 14.746524	 1.557719
 0.000775	-0.056539	 17.109362	 1.558983
 0.000787	-0.052445	 20.148386	 1.560397
 0.000800	-0.047990	 24.046991	 1.561955
 0.000812	-0.043213	 29.042257	 1.563648
 0.000825	-0.038152	 35.438072	 1.565467
 0.000837	-0.032850	 43.620216	 1.567400
 0.000850	-0.027348	 54.072807	 1.569435
 0.000862	-0.021691	 67.395027	 1.571559
 0.000875	-0.015924	 84.315994	 1.573757
 0.000887	-0.010093	 105.704803	 1.576014
 0.000900	-0.004242	 132.571213	 1.578312
 0.000912	 0.001583	 166.051590	 1.580634
 0.000925	 0.007337	 207.373657	 1.582962
 0.000937	 0.012976	 257.793091	 1.585275
 0.000950	 0.018459	 318.497253	 1.587554
 0.000962	 0.023745	 390.472809	 1.589780
 0.000975	 0.028794	 474.341248	 1.591932
 0.000987	 0.033571	 570.171631	 1.593992
 0.001000	 0.038042	 677.290283	 1.595940
 0.001012	 0.042175	 794.115356	 1.597759
 0.001025	 0.045941	 918.047852	 1.599432
 0.001037	 0.049318	 1045.456909	 1.600943
 0.001050	 0.052281	 1171.783813	 1.602279
 0.001062	 0.054815	 1291.781128	 1.603428
 0.001075	 0.056903	 1399.876099	 1.604380
 0.001087	 0.058535	 1490.631714	 1.605127
 0.001100	 0.059704	 1559.243042	 1.605664
 0.001112	 0.060408	 1602.011353	 1.605988
 0.001125	 0.060645	 1616.714844	 1.606097
 0.001137	 0.060421	 1602.826538	 1.605994
 0.001150	 0.059743	 1561.546265	 1.605682
 0.001162	 0.058622	 1495.638550	 1.605167
 0.001175	 0.057074	 1409.115845	 1.604458
 0.001187	 0.055115	 1306.813354	 1.603565
 0.001200	 0.052768	 1193.922729	 1.602499
 0.001212	 0.050055	 1075.551147	 1.601275
 0.001225	 0.047003	 956.351624	 1.599906
 0.001237	 0.043642	 840.261169	 1.598409
 0.001250	 0.040001	 730.355286	 1.596800
 0.001262	 0.036113	 628.811462	 1.595097
 0.001275	 0.032013	 536.958618	 1.593318
 0.001287	 0.027736	 455.389587	 1.591479
 0.001300	 0.023318	 384.104736	 1.589599
 0.001312	 0.018796	 322.665405	 1.587695
 0.001325	 0.014208	 270.338257	 1.585784
 0.001337	 0.009590	 226.219620	 1.583882
 0.001350	 0.004980	 189.334793	 1.582004
 0.001362	 0.000413	 158.711044	 1.580165
 0.001375	-0.004075	 133.427261	 1.578378
 0.001387	-0.008451	 112.643944	 1.576655
 0.001400	-0.012681	 95.617867	 1.575008
 0.001412	-0.016734	 81.705994	 1.573446
 0.001425	-0.020583	 70.362015	 1.571979
 0.001437	-0.024199	 61.128731	 1.570613
 0.001450	-0.027560	 53.628181	 1.569356
 0.001462	-0.030642	 47.551140	 1.568213
 0.001475	-0.033427	 42.646935	 1.567188
 0.001487	-0.035898	 38.714108	 1.566285
 0.001500	-0.038042	 35.592186	 1.565507
 0.001512	-0.039848	 33.154678	 1.564855
 0.001525	-0.041309	 31.303276	 1.564330
 0.001537	-0.042421	 29.963072	 1.563931
 0.001550	-0.043181	 29.078838	 1.563660
 0.001562	-0.043592	 28.612066	 1.563514
 0.001575	-0.043657	 28.538765	 1.563490
 0.001587	-0.043383	 28.847857	 1.563588
 0.001600	-0.042782	 29.540052	 1.563802
 0.001612	-0.041864	 30.627176	 1.564131
 0.001625	-0.040645	 32.131763	 1.564568
 0.001637	-0.039142	 34.086933	 1.565109
 0.001650	-0.037375	 36.536377	 1.565749
 0.001662	-0.035363	 39.534401	 1.566480
 0.001675	-0.033129	 43.145878	 1.567297
 0.001687	-0.030698	 47.445980	 1.568192
 0.001700	-0.028095	 52.519497	 1.569157
 0.001712	-0.025346	 58.459610	 1.570183
 0.001725	-0.022477	 65.365807	 1.571262
 0.001737	-0.019516	 73.340874	 1.572384
 0.001750	-0.016489	 82.486618	 1.573540
 0.001762	-0.013425	 92.898270	 1.574720
 0.001775	-0.010350	 104.657516	 1.575914
 0.001787	-0.007289	 117.824219	 1.577111
 0.001800	-0.004270	 132.427078	 1.578301
 0.001812	-0.001316	 148.453827	 1.579475
 0.001825	 0.001550	 165.841370	 1.580621
 0.001837	 0.004305	 184.467346	 1.581731
 0.001850	 0.006930	 204.143494	 1.582796
 0.001862	 0.009406	 224.612579	 1.583806
 0.001875	 0.011715	 245.549469	 1.584755
 0.001887	 0.013844	 266.567413	 1.585633
 0.001900	 0.015780	 287.229645	 1.586436
 0.001912	 0.017511	 307.066498	 1.587158
 0.001925	 0.019031	 325.596527	 1.587793
 0.001937	 0.020333	 342.350861	 1.588340
 0.001950	 0.021412	 356.898621	 1.588794
 0.001962	 0.022268	 368.870941	 1.589155
 0.001975	 0.022901	 377.981903	 1.589423
 0.001987	 0.023314	 384.043762	 1.589597
 0.002000	 0.023511	 386.976196	 1.589681
 0.002012	 0.023500	 386.807373	 1.589676
 0.002025	 0.023289	 383.668640	 1.589587
 0.002037	 0.022887	 377.782379	 1.589417
 0.002050	 0.022309	 369.445160	 1.589172
 0.002062	 0.021565	 359.007904	 1.588858
 0.002075	 0.020672	 346.854553	 1.588482
 0.002087	 0.019644	 333.381714	 1.588050
 0.002100	 0.018499	 318.980133	 1.587570
 0.002112	 0.017253	 304.019257	 1.587050
 0.002125	 0.015924	 288.835571	 1.586496
 0.002137	 0.014531	 273.724670	 1.585918
 0.002150	 0.013091	 258.937042	 1.585322
 0.002162	 0.011623	 244.677170	 1.584717
 0.002175	 0.010144	 231.104736	 1.584109
 0.002187	 0.008671	 218.338242	 1.583506
 0.002200	 0.007222	 206.459610	 1.582915
 0.002212	 0.005812	 195.519379	 1.582342
 0.002225	 0.004456	 185.542206	 1.581792
 0.002237	 0.003167	 176.532227	 1.581272
 0.002250	 0.001958	 168.477890	 1.580785
 0.002262	 0.000840	 161.356232	 1.580337
 0.002275	-0.000177	 155.136551	 1.579929
 0.002287	-0.001085	 149.783401	 1.579567
 0.002300	-0.001879	 145.258896	 1.579250
 0.002312	-0.002552	 141.524475	 1.578982
 0.002325	-0.003103	 138.542130	 1.578764
 0.002337	-0.003529	 136.275101	 1.578594
 0.002350	-0.003832	 134.688278	 1.578474
 0.002362	-0.004013	 133.748169	 1.578403
 0.002375	-0.004076	 133.422577	 1.578378
 0.002387	-0.004027	 133.680038	 1.578398
 0.002400	-0.003871	 134.489136	 1.578459
 0.002412	-0.003616	 135.817398	 1.578560
 0.002425	-0.003274	 137.630310	 1.578696
 0.002437	-0.002852	 139.890167	 1.578863
 0.002450	-0.002365	 142.554779	 1.579057
 0.002462	-0.001822	 145.576263	 1.579273
 0.002475	-0.001238	 148.900116	 1.579506
 0.002487	-0.000626	 152.464127	 1.579750
 0.002500	-0.000000	 156.197922	 1.580000
 0.002512	 0.000626	 160.022781	 1.580251
 0.002525	 0.001238	 163.851807	 1.580496
 0.002537	 0.001822	 167.591003	 1.580730
 0.002550	 0.002364	 171.140701	 1.580948
 0.002562	 0.002852	 174.397781	 1.581145
 0.002575	 0.003273	 177.258560	 1.581315
 0.002587	 0.003616	 179.622177	 1.581453
 0.002600	 0.003870	 181.394318	 1.581556
 0.002612	 0.004026	 182.491226	 1.581619
 0.002625	 0.004076	 182.843552	 1.581639
 0.002637	 0.004013	 182.399811	 1.581613
 0.002650	 0.003833	 181.129211	 1.581540
 0.002662	 0.003530	 179.023651	 1.581418
 0.002675	 0.003103	 176.098450	 1.581246
 0.002687	 0.002553	 172.392014	 1.581024
 0.002700	 0.001879	 167.964233	 1.580753
 0.002712	 0.001086	 162.893875	 1.580435
 0.002725	 0.000178	 157.274918	 1.580071
 0.002737	-0.000840	 151.212387	 1.579665
 0.002750	-0.001957	 144.817825	 1.579219
 0.002762	-0.003166	 138.204834	 1.578739
 0.002775	-0.004455	 131.484802	 1.578228
 0.002787	-0.005811	 124.763237	 1.577693
 0.002800	-0.007221	 118.136841	 1.577138
 0.002812	-0.008670	 111.691406	 1.576570
 0.002825	-0.010143	 105.500542	 1.575994
 0.002837	-0.011622	 99.625160	 1.575419
 0.002850	-0.013090	 94.113785	 1.574850
 0.002862	-0.014530	 89.003304	 1.574294
 0.002875	-0.015923	 84.320244	 1.573758
 0.002887	-0.017252	 80.082375	 1.573248
 0.002900	-0.018497	 76.300377	 1.572772
 0.002912	-0.019643	 72.979675	 1.572336
 0.002925	-0.020671	 70.122192	 1.571945
 0.002937	-0.021564	 67.728142	 1.571607
 0.002950	-0.022308	 65.797523	 1.571326
 0.002962	-0.022887	 64.331772	 1.571107
 0.002975	-0.023288	 63.335072	 1.570956
 0.002987	-0.023500	 62.815777	 1.570876
 0.003000	-0.023511	 62.787670	 1.570872
 0.003012	-0.023314	 63.271301	 1.570946
 0.003025	-0.022902	 64.295296	 1.571102
 0.003037	-0.022269	 65.897758	 1.571340
 0.003050	-0.021413	 68.127808	 1.571664
 0.003062	-0.020334	 71.047150	 1.572073
 0.003075	-0.019032	 74.731926	 1.572568
 0.003087	-0.017513	 79.274498	 1.573148
 0.003100	-0.015781	 84.785446	 1.573812
 0.003112	-0.013846	 91.395508	 1.574558
 0.003125	-0.011717	 99.257347	 1.575382
 0.003137	-0.009408	 108.547020	 1.576281
 0.003150	-0.006932	 119.464676	 1.577251
 0.003162	-0.004308	 132.234329	 1.578286
 0.003175	-0.001552	 147.101944	 1.579380
 0.003187	 0.001313	 164.331390	 1.580526
 0.003200	 0.004267	 184.197418	 1.581716
 0.003212	 0.007287	 206.974899	 1.582941
 0.003225	 0.010347	 232.923645	 1.584192
 0.003237	 0.013422	 262.268219	 1.585459
 0.003250	 0.016487	 295.172089	 1.586731
 0.003262	 0.019513	 331.707062	 1.587996
 0.003275	 0.022475	 371.818420	 1.589242
 0.003287	 0.025344	 415.287964	 1.590459
 0.003300	 0.028093	 461.698242	 1.591632
 0.003312	 0.030696	 510.402313	 1.592750
 0.003325	 0.033127	 560.503906	 1.593800
 0.003337	 0.035361	 610.853943	 1.594769
 0.003350	 0.037373	 660.069031	 1.595648
 0.003362	 0.039141	 706.574341	 1.596422
 0.003375	 0.040644	 748.675598	 1.597084
 0.003387	 0.041863	 784.653442	 1.597622
 0.003400	 0.042781	 812.878601	 1.598028
 0.003412	 0.043383	 831.935791	 1.598294
 0.003425	 0.043657	 840.742065	 1.598415
 0.003437	 0.043592	 838.648682	 1.598387
 0.003450	 0.043182	 825.509216	 1.598205
 0.003462	 0.042422	 801.706604	 1.597868
 0.003475	 0.041310	 768.131958	 1.597378
 0.003487	 0.039850	 726.118774	 1.596734
 0.003500	 0.038044	 677.337708	 1.595941
 0.003512	 0.035900	 623.667175	 1.595004
 0.003525	 0.033429	 567.054382	 1.593930
 0.003537	 0.030644	 509.381958	 1.592727
 0.003550	 0.027562	 452.355774	 1.591405
 0.003562	 0.024202	 397.421265	 1.589974
 0.003575	 0.020586	 345.714172	 1.588446
 0.003587	 0.016738	 298.043915	 1.586835
 0.003600	 0.012684	 254.906525	 1.585154
 0.003612	 0.008455	 216.518402	 1.583418
 0.003625	 0.004079	 182.864304	 1.581640
 0.003637	-0.000409	 153.751053	 1.579837
 0.003650	-0.004976	 128.860672	 1.578022
 0.003662	-0.009586	 107.798630	 1.576211
 0.003675	-0.014204	 90.134056	 1.574419
 0.003687	-0.018792	 75.431099	 1.572660
 0.003700	-0.023314	 63.271378	 1.570946
 0.003712	-0.027732	 53.268665	 1.569292
 0.003725	-0.032009	 45.077007	 1.567708
 0.003737	-0.036110	 38.394051	 1.566208
 0.003750	-0.039997	 32.960777	 1.564801
 0.003762	-0.043639	 28.559032	 1.563497
 0.003775	-0.047001	 25.007797	 1.562304
 0.003787	-0.050052	 22.158884	 1.561232
 0.003800	-0.052765	 19.892595	 1.560286
 0.003812	-0.055113	 18.113691	 1.559473
 0.003825	-0.057072	 16.747797	 1.558800
 0.003837	-0.058621	 15.738408	 1.558270
 0.003850	-0.059742	 15.044531	 1.557888
 0.003862	-0.060420	 14.638910	 1.557657
 0.003875	-0.060645	 14.506951	 1.557581
 0.003887	-0.060408	 14.646241	 1.557661
 0.003900	-0.059705	 15.066813	 1.557900
 0.003912	-0.058536	 15.792121	 1.558299
 0.003925	-0.056904	 16.860857	 1.558857
 0.003937	-0.054816	 18.329842	 1.559576
 0.003950	-0.052284	 20.278063	 1.560453
 0.003962	-0.049320	 22.812300	 1.561488
 0.003975	-0.045944	 26.074528	 1.562678
 0.003987	-0.042177	 30.251659	 1.564018
 0.004000	-0.038045	 35.587994	 1.565506
 0.004012	-0.033574	 42.400944	 1.567134
 0.004025	-0.028798	 51.100365	 1.568896
 0.004037	-0.023748	 62.211819	 1.570783
 0.004050	-0.018463	 76.403503	 1.572785
 0.004062	-0.012980	 94.516068	 1.574892
 0.004075	-0.007340	 117.593300	 1.577091
 0.004087	-0.001586	 146.910110	 1.579367
 0.004100	 0.004239	 183.992264	 1.581704
 0.004112	 0.010089	 230.619675	 1.584087
 0.004125	 0.015921	 288.802368	 1.586495
 0.004137	 0.021688	 360.716064	 1.588910
 0.004150	 0.027345	 448.583435	 1.591312
 0.004162	 0.032847	 554.489014	 1.593678
 0.004175	 0.038150	 680.120300	 1.595988
 0.004187	 0.043211	 826.439880	 1.598218
 0.004200	 0.047988	 993.307800	 1.600347
 0.004212	 0.052443	 1179.094360	 1.602352
 0.004225	 0.056538	 1380.342163	 1.604213
 0.004238	 0.060237	 1591.554810	 1.605909
 0.004250	 0.063511	 1805.190918	 1.607421
 0.004263	 0.066329	 2011.931885	 1.608731
 0.004275	 0.068666	 2201.251221	 1.609824
 0.004288	 0.070501	 2362.270508	 1.610685
 0.004300	 0.071815	 2484.816895	 1.611305
 0.004313	 0.072595	 2560.534180	 1.611673
 0.004325	 0.072831	 2583.887451	 1.611785
 0.004338	 0.072517	 2552.871582	 1.611636
 0.004350	 0.071652	 2469.298584	 1.611228
 0.004363	 0.070239	 2338.602295	 1.610562
 0.004375	 0.068285	 2169.194336	 1.609645
 0.004388	 0.065801	 1971.479736	 1.608485
 0.004400	 0.062803	 1756.713135	 1.607093
 0.004413	 0.059312	 1535.872437	 1.605484
 0.004425	 0.055351	 1318.721313	 1.603672
 0.004438	 0.050948	 1113.153320	 1.601677
 0.004450	 0.046134	 924.871399	 1.599518
 0.004463	 0.040944	 757.369873	 1.597216
 0.004475	 0.035416	 612.155273	 1.594794
 0.004488	 0.029591	 489.119019	 1.592274
 0.004500	 0.023511	 386.971771	 1.589681
 0.004513	 0.017223	 303.670166	 1.587037
 0.004525	 0.010773	 236.786423	 1.584367
 0.004538	 0.004211	 183.796738	 1.581693
 0.004550	-0.002414	 142.283051	 1.579037
 0.004563	-0.009051	 110.057091	 1.576421
 0.004575	-0.015649	 85.221191	 1.573863
 0.004588	-0.022157	 66.183769	 1.571383
 0.004600	-0.028526	 51.645000	 1.568997
 0.004613	-0.034705	 40.565971	 1.566720
 0.004625	-0.040646	 32.130634	 1.564568
 0.004638	-0.046303	 25.706900	 1.562551
 0.004650	-0.051632	 20.810637	 1.560680
 0.004663	-0.056590	 17.074339	 1.558965
 0.004675	-0.061138	 14.220991	 1.557414
 0.004688	-0.065241	 12.043034	 1.556032
 0.004700	-0.068864	 10.385804	 1.554826
 0.004713	-0.071979	 9.134804	 1.553799
 0.004725	-0.074561	 8.206062	 1.552955
 0.004738	-0.076588	 7.539004	 1.552298
 0.004750	-0.078043	 7.091269	 1.551828
 0.004763	-0.078914	 6.835092	 1.551548
 0.004775	-0.079192	 6.754963	 1.551459
 0.004788	-0.078875	 6.846321	 1.551561
 0.004800	-0.077963	 7.115204	 1.551854
 0.004813	-0.076462	 7.578843	 1.552338
 0.004825	-0.074382	 8.267212	 1.553013
 0.004838	-0.071739	 9.225758	 1.553877
 0.004850	-0.068552	 10.519498	 1.554929
 0.004863	-0.064844	 12.238953	 1.556165
 0.004875	-0.060643	 14.508343	 1.557582
 0.004888	-0.055980	 17.496826	 1.559175
 0.004900	-0.050890	 21.433559	 1.560939
 0.004913	-0.045413	 26.627628	 1.562866
 0.004925	-0.039589	 33.493935	 1.564948
 0.004938	-0.033463	 42.586105	 1.567175
 0.004950	-0.027082	 54.637157	 1.569534
 0.004963	-0.020493	 70.607941	 1.572013
 0.004975	-0.013748	 91.741989	 1.574595
 0.004988	-0.006898	 119.623116	 1.577265
 0.005000	 0.000005	 156.228622	 1.580002
 0.005013	 0.006908	 203.966736	 1.582787
 0.005025	 0.013758	 265.681091	 1.585598
 0.005038	 0.020502	 344.600220	 1.588411
 0.005050	 0.027091	 444.205719	 1.591203
 0.005063	 0.033472	 567.992493	 1.593949
 0.005075	 0.039597	 719.102966	 1.596623
 0.005088	 0.045421	 899.829346	 1.599200
 0.005100	 0.050898	 1111.010132	 1.601654
 0.005113	 0.055986	 1351.377075	 1.603962
 0.005125	 0.060649	 1616.951294	 1.606099
 0.005138	 0.064849	 1900.621948	 1.608042
 0.005150	 0.068557	 2192.042236	 1.609773
 0.005163	 0.071743	 2477.973389	 1.611271
 0.005175	 0.074386	 2743.130615	 1.612521
 0.005188	 0.076464	 2971.511475	 1.613509
 0.005200	 0.077964	 3148.047607	 1.614225
 0.005213	 0.078876	 3260.356689	 1.614661
 0.005225	 0.079192	 3300.296387	 1.614813
 0.005238	 0.078913	 3265.017822	 1.614679
 0.005250	 0.078041	 3157.337402	 1.614262
 0.005263	 0.076585	 2985.340088	 1.613567
 0.005275	 0.074557	 2761.302734	 1.612602
 0.005288	 0.071975	 2500.142578	 1.611380
 0.005300	 0.068859	 2217.687988	 1.609914
 0.005313	 0.065235	 1929.049072	 1.608222
 0.005325	 0.061132	 1647.326172	 1.606322
 0.005338	 0.056584	 1382.789551	 1.604234
 0.005350	 0.051625	 1142.548828	 1.601983
 0.005363	 0.046296	 930.653687	 1.599590
 0.005375	 0.040638	 748.502258	 1.597081
 0.005388	 0.034696	 595.423035	 1.594480
 0.005400	 0.028517	 469.303436	 1.591813
 0.005413	 0.022148	 367.173279	 1.589105
 0.005425	 0.015640	 285.686676	 1.586378
 0.005438	 0.009042	 221.480057	 1.583658
 0.005450	 0.002405	 171.408981	 1.580965
 0.005463	-0.004220	 132.682373	 1.578321
 0.005475	-0.010782	 102.917984	 1.575745
 0.005488	-0.017232	 80.143951	 1.573256
 0.005500	-0.023520	 62.767532	 1.570869
 0.005513	-0.029599	 49.527245	 1.568599
 0.005525	-0.035424	 39.439552	 1.566458
 0.005538	-0.040951	 31.747152	 1.564458
 0.005550	-0.046141	 25.872663	 1.562608
 0.005563	-0.050954	 21.379234	 1.560917
 0.005575	-0.055357	 17.938303	 1.559389
 0.005588	-0.059317	 15.303969	 1.558032
 0.005600	-0.062808	 13.293015	 1.556849
 0.005613	-0.065804	 11.769673	 1.555843
 0.005625	-0.068288	 10.634138	 1.555017
 0.005638	-0.070241	 9.814071	 1.554370
 0.005650	-0.071654	 9.258425	 1.553906
 0.005663	-0.072518	 8.933072	 1.553622
 0.005675	-0.072831	 8.817863	 1.553520
 0.005688	-0.072595	 8.904843	 1.553597
 0.005700	-0.071814	 9.197459	 1.553853
 0.005713	-0.070498	 9.710647	 1.554286
 0.005725	-0.068663	 10.471786	 1.554892
 0.005738	-0.066325	 11.522590	 1.555670
 0.005750	-0.063506	 12.921980	 1.556614
 0.005763	-0.060232	 14.750172	 1.557721
 0.005775	-0.056532	 17.114113	 1.558985
 0.005788	-0.052437	 20.154552	 1.560400
 0.005800	-0.047982	 24.054976	 1.561958
 0.005813	-0.043204	 29.052591	 1.563652
 0.005825	-0.038143	 35.451439	 1.565470
 0.005838	-0.032840	 43.637470	 1.567403
 0.005850	-0.027337	 54.095055	 1.569439
 0.005863	-0.021680	 67.423615	 1.571563
 0.005875	-0.015913	 84.352592	 1.573761
 0.005888	-0.010081	 105.751373	 1.576018
 0.005900	-0.004230	 132.630051	 1.578317
