TBJ_JFET  
Vin = 0.02*sen(2*PI*1000.0*t) + 0.02*sen(2*PI*1500.0*t)
Is = 1.00e-11  Idss = 2.00
Vt = 0.026     Vp   = -2.00
Tensiones de polarización
Vbe = 0.900
Vgs = -0.600

t [s]   	Vin [V] 	Ic [mA] 	Id [mA] 	
 0.000000	 0.000000	 10796.190430	 0.980000
 0.000010	 0.003138	 12181.087891	 0.984398
 0.000020	 0.006254	 13732.190430	 0.988776
 0.000030	 0.009327	 15455.130859	 0.993102
 0.000040	 0.012336	 17351.267578	 0.997347
 0.000050	 0.015260	 19416.470703	 1.001481
 0.000060	 0.018079	 21639.923828	 1.005474
 0.000070	 0.020774	 24003.082031	 1.009299
 0.000080	 0.023326	 26478.873047	 1.012928
 0.000090	 0.025719	 29031.332031	 1.016337
 0.000100	 0.027936	 31615.769531	 1.019501
 0.000110	 0.029963	 34179.570312	 1.022398
 0.000120	 0.031787	 36663.742188	 1.025008
 0.000130	 0.033397	 39005.097656	 1.027313
 0.000140	 0.034782	 41139.109375	 1.029300
 0.000150	 0.035934	 43003.171875	 1.030953
 0.000160	 0.036847	 44540.054688	 1.032265
 0.000170	 0.037516	 45701.281250	 1.033226
 0.000180	 0.037939	 46450.128906	 1.033834
 0.000190	 0.038114	 46763.886719	 1.034086
 0.000200	 0.038042	 46635.277344	 1.033983
 0.000210	 0.037727	 46072.789062	 1.033529
 0.000220	 0.037172	 45099.960938	 1.032732
 0.000230	 0.036384	 43753.640625	 1.031599
 0.000240	 0.035371	 42081.546875	 1.030145
 0.000250	 0.034142	 40139.195312	 1.028382
 0.000260	 0.032709	 37986.597656	 1.026328
 0.000270	 0.031084	 35685.042969	 1.024001
 0.000280	 0.029281	 33294.101562	 1.021422
 0.000290	 0.027315	 30869.160156	 1.018614
 0.000300	 0.025202	 28459.525391	 1.015600
 0.000310	 0.022958	 26107.197266	 1.012405
 0.000320	 0.020603	 23846.255859	 1.009057
 0.000330	 0.018154	 21702.787109	 1.005581
 0.000340	 0.015631	 19695.287109	 1.002005
 0.000350	 0.013052	 17835.369141	 0.998358
 0.000360	 0.010437	 16128.691406	 0.994666
 0.000370	 0.007805	 14575.978516	 0.990957
 0.000380	 0.005175	 13174.060547	 0.987259
 0.000390	 0.002568	 11916.852539	 0.983598
 0.000400	 0.000000	 10796.239258	 0.980000
 0.000410	-0.002510	 9802.828125	 0.976490
 0.000420	-0.004944	 8926.573242	 0.973090
 0.000430	-0.007287	 8157.264648	 0.969824
 0.000440	-0.009524	 7484.899414	 0.966712
 0.000450	-0.011640	 6899.945312	 0.963772
 0.000460	-0.013622	 6393.519043	 0.961022
 0.000470	-0.015458	 5957.490723	 0.958478
 0.000480	-0.017139	 5584.538086	 0.956152
 0.000490	-0.018655	 5268.155762	 0.954057
 0.000500	-0.020000	 5002.639160	 0.952200
 0.000510	-0.021167	 4783.050781	 0.950590
 0.000520	-0.022152	 4605.170410	 0.949232
 0.000530	-0.022953	 4465.440918	 0.948129
 0.000540	-0.023569	 4360.915039	 0.947281
 0.000550	-0.024000	 4289.194824	 0.946687
 0.000560	-0.024249	 4248.380859	 0.946345
 0.000570	-0.024319	 4237.015625	 0.946250
 0.000580	-0.024214	 4254.035645	 0.946393
 0.000590	-0.023943	 4298.717285	 0.946767
 0.000600	-0.023511	 4370.630371	 0.947360
 0.000610	-0.022929	 4469.584961	 0.948162
 0.000620	-0.022207	 4595.577637	 0.949157
 0.000630	-0.021354	 4748.737305	 0.950332
 0.000640	-0.020384	 4929.260254	 0.951670
 0.000650	-0.019309	 5137.343750	 0.953154
 0.000660	-0.018142	 5373.114258	 0.954765
 0.000670	-0.016898	 5636.543945	 0.956486
 0.000680	-0.015590	 5927.368164	 0.958296
 0.000690	-0.014233	 6244.997559	 0.960175
 0.000700	-0.012841	 6588.425293	 0.962105
 0.000710	-0.011429	 6956.144531	 0.964065
 0.000720	-0.010011	 7346.067871	 0.966035
 0.000730	-0.008601	 7755.464844	 0.967996
 0.000740	-0.007212	 8180.918457	 0.969929
 0.000750	-0.005858	 8618.308594	 0.971816
 0.000760	-0.004550	 9062.826172	 0.973640
 0.000770	-0.003301	 9509.033203	 0.975384
 0.000780	-0.002120	 9950.952148	 0.977035
 0.000790	-0.001017	 10382.202148	 0.978577
 0.000800	-0.000000	 10796.175781	 0.980000
 0.000810	 0.000923	 11186.243164	 0.981292
 0.000820	 0.001746	 11545.972656	 0.982446
 0.000830	 0.002464	 11869.375977	 0.983453
 0.000840	 0.003074	 12151.133789	 0.984308
 0.000850	 0.003573	 12386.811523	 0.985009
 0.000860	 0.003961	 12573.035156	 0.985554
 0.000870	 0.004238	 12707.627930	 0.985942
 0.000880	 0.004406	 12789.689453	 0.986178
 0.000890	 0.004466	 12819.615234	 0.986263
 0.000900	 0.004425	 12799.059570	 0.986204
 0.000910	 0.004286	 12730.841797	 0.986009
 0.000920	 0.004056	 12618.809570	 0.985686
 0.000930	 0.003743	 12467.659180	 0.985247
 0.000940	 0.003354	 12282.744141	 0.984701
 0.000950	 0.002899	 12069.864258	 0.984063
 0.000960	 0.002389	 11835.062500	 0.983347
 0.000970	 0.001832	 11584.439453	 0.982567
 0.000980	 0.001241	 11323.986328	 0.981738
 0.000990	 0.000626	 11059.442383	 0.980877
 0.001000	 0.000000	 10796.199219	 0.980000
 0.001010	-0.000626	 10539.220703	 0.979123
 0.001020	-0.001241	 10293.009766	 0.978263
 0.001030	-0.001832	 10061.590820	 0.977437
 0.001040	-0.002389	 9848.523438	 0.976659
 0.001050	-0.002899	 9656.934570	 0.975945
 0.001060	-0.003354	 9489.563477	 0.975310
 0.001070	-0.003743	 9348.816406	 0.974767
 0.001080	-0.004056	 9236.833008	 0.974330
 0.001090	-0.004286	 9155.545898	 0.974009
 0.001100	-0.004425	 9106.745117	 0.973815
 0.001110	-0.004466	 9092.138672	 0.973757
 0.001120	-0.004406	 9113.408203	 0.973842
 0.001130	-0.004238	 9172.254883	 0.974075
 0.001140	-0.003961	 9270.437500	 0.974462
 0.001150	-0.003573	 9409.802734	 0.975004
 0.001160	-0.003074	 9592.303711	 0.975701
 0.001170	-0.002464	 9820.000977	 0.976553
 0.001180	-0.001746	 10095.051758	 0.977557
 0.001190	-0.000923	 10419.682617	 0.978708
 0.001200	-0.000000	 10796.137695	 0.980000
 0.001210	 0.001016	 11226.607422	 0.981423
 0.001220	 0.002119	 11713.132812	 0.982969
 0.001230	 0.003301	 12257.473633	 0.984626
 0.001240	 0.004550	 12860.958984	 0.986380
 0.001250	 0.005858	 13524.296875	 0.988218
 0.001260	 0.007212	 14247.359375	 0.990123
 0.001270	 0.008600	 15028.941406	 0.992078
 0.001280	 0.010010	 15866.499023	 0.994065
 0.001290	 0.011428	 16755.882812	 0.996065
 0.001300	 0.012841	 17691.072266	 0.998059
 0.001310	 0.014232	 18663.947266	 1.000027
 0.001320	 0.015590	 19664.091797	 1.001947
 0.001330	 0.016898	 20678.691406	 1.003800
 0.001340	 0.018142	 21692.519531	 1.005563
 0.001350	 0.019309	 22688.074219	 1.007219
 0.001360	 0.020384	 23645.847656	 1.008745
 0.001370	 0.021354	 24544.763672	 1.010123
 0.001380	 0.022206	 25362.808594	 1.011335
 0.001390	 0.022929	 26077.794922	 1.012364
 0.001400	 0.023511	 26668.253906	 1.013192
 0.001410	 0.023943	 27114.429688	 1.013806
 0.001420	 0.024214	 27399.273438	 1.014193
 0.001430	 0.024319	 27509.384766	 1.014342
 0.001440	 0.024249	 27435.849609	 1.014243
 0.001450	 0.024001	 27174.841797	 1.013889
 0.001460	 0.023569	 26727.984375	 1.013275
 0.001470	 0.022954	 26102.402344	 1.012399
 0.001480	 0.022153	 25310.472656	 1.011259
 0.001490	 0.021167	 24369.244141	 1.009858
 0.001500	 0.020000	 23299.628906	 1.008201
 0.001510	 0.018656	 22125.378906	 1.006292
 0.001520	 0.017140	 20871.955078	 1.004142
 0.001530	 0.015459	 19565.367188	 1.001762
 0.001540	 0.013622	 18231.080078	 0.999164
 0.001550	 0.011640	 16893.033203	 0.996364
 0.001560	 0.009525	 15572.853516	 0.993380
 0.001570	 0.007288	 14289.282227	 0.990230
 0.001580	 0.004945	 13057.827148	 0.986935
 0.001590	 0.002510	 11890.630859	 0.983518
 0.001600	 0.000001	 10796.533203	 0.980001
 0.001610	-0.002567	 9781.280273	 0.976410
 0.001620	-0.005174	 8847.854492	 0.972769
 0.001630	-0.007804	 7996.870605	 0.969105
 0.001640	-0.010436	 7227.011230	 0.965445
 0.001650	-0.013051	 6535.453613	 0.961814
 0.001660	-0.015630	 5918.277832	 0.958240
 0.001670	-0.018153	 5370.835938	 0.954750
 0.001680	-0.020602	 4888.062500	 0.951369
 0.001690	-0.022958	 4464.739258	 0.948123
 0.001700	-0.025201	 4095.698975	 0.945037
 0.001710	-0.027314	 3775.982910	 0.942134
 0.001720	-0.029280	 3500.955078	 0.939437
 0.001730	-0.031083	 3266.378662	 0.936966
 0.001740	-0.032708	 3068.465332	 0.934743
 0.001750	-0.034142	 2903.900146	 0.932785
 0.001760	-0.035370	 2769.856201	 0.931107
 0.001770	-0.036384	 2663.994141	 0.929725
 0.001780	-0.037172	 2584.459229	 0.928651
 0.001790	-0.037727	 2529.878418	 0.927894
 0.001800	-0.038042	 2499.354492	 0.927465
 0.001810	-0.038114	 2492.470947	 0.927367
 0.001820	-0.037939	 2509.296387	 0.927605
 0.001830	-0.037517	 2550.401611	 0.928181
 0.001840	-0.036847	 2616.883301	 0.929092
 0.001850	-0.035935	 2710.395508	 0.930337
 0.001860	-0.034783	 2833.194092	 0.931909
 0.001870	-0.033398	 2988.188477	 0.933801
 0.001880	-0.031788	 3179.001709	 0.936002
 0.001890	-0.029964	 3410.037598	 0.938499
 0.001900	-0.027937	 3686.551514	 0.941278
 0.001910	-0.025720	 4014.721680	 0.944323
 0.001920	-0.023327	 4401.709473	 0.947614
 0.001930	-0.020775	 4855.707031	 0.951131
 0.001940	-0.018080	 5385.951660	 0.954851
 0.001950	-0.015262	 6002.701660	 0.958750
 0.001960	-0.012338	 6717.155762	 0.962803
 0.001970	-0.009329	 7541.256348	 0.966983
 0.001980	-0.006256	 8487.436523	 0.971262
 0.001990	-0.003139	 9568.203125	 0.975610
 0.002000	-0.000001	 10795.586914	 0.979998
 0.002010	 0.003137	 12180.421875	 0.984396
 0.002020	 0.006253	 13731.458984	 0.988774
 0.002030	 0.009326	 15454.335938	 0.993100
 0.002040	 0.012335	 17350.412109	 0.997345
 0.002050	 0.015259	 19415.560547	 1.001479
 0.002060	 0.018078	 21638.966797	 1.005472
 0.002070	 0.020773	 24002.089844	 1.009297
 0.002080	 0.023325	 26477.859375	 1.012927
 0.002090	 0.025718	 29030.316406	 1.016336
 0.002100	 0.027935	 31614.767578	 1.019499
 0.002110	 0.029963	 34178.609375	 1.022396
 0.002120	 0.031787	 36662.839844	 1.025007
 0.002130	 0.033396	 39004.273438	 1.027313
 0.002140	 0.034781	 41138.398438	 1.029299
 0.002150	 0.035934	 43002.574219	 1.030953
 0.002160	 0.036847	 44539.589844	 1.032264
 0.002170	 0.037516	 45700.960938	 1.033226
 0.002180	 0.037939	 46449.949219	 1.033834
 0.002190	 0.038114	 46763.851562	 1.034086
 0.002200	 0.038042	 46635.390625	 1.033983
 0.002210	 0.037727	 46073.027344	 1.033529
 0.002220	 0.037172	 45100.308594	 1.032732
 0.002230	 0.036384	 43754.078125	 1.031600
 0.002240	 0.035371	 42082.062500	 1.030145
 0.002250	 0.034143	 40139.765625	 1.028382
 0.002260	 0.032709	 37987.199219	 1.026328
 0.002270	 0.031084	 35685.652344	 1.024001
 0.002280	 0.029281	 33294.707031	 1.021423
 0.002290	 0.027315	 30869.744141	 1.018614
 0.002300	 0.025202	 28460.080078	 1.015600
 0.002310	 0.022959	 26107.714844	 1.012406
 0.002320	 0.020604	 23846.728516	 1.009058
 0.002330	 0.018155	 21703.214844	 1.005582
 0.002340	 0.015631	 19695.667969	 1.002006
 0.002350	 0.013052	 17835.705078	 0.998358
 0.002360	 0.010437	 16128.984375	 0.994666
 0.002370	 0.007805	 14576.231445	 0.990958
 0.002380	 0.005176	 13174.275391	 0.987260
 0.002390	 0.002568	 11917.035156	 0.983599
 0.002400	 0.000000	 10796.392578	 0.980001
 0.002410	-0.002509	 9802.955078	 0.976490
 0.002420	-0.004944	 8926.677734	 0.973091
 0.002430	-0.007287	 8157.350098	 0.969825
 0.002440	-0.009524	 7484.968262	 0.966712
 0.002450	-0.011639	 6900.000488	 0.963772
 0.002460	-0.013621	 6393.562500	 0.961023
 0.002470	-0.015458	 5957.524902	 0.958478
 0.002480	-0.017139	 5584.563965	 0.956152
 0.002490	-0.018655	 5268.174805	 0.954057
 0.002500	-0.020000	 5002.653809	 0.952200
 0.002510	-0.021167	 4783.061523	 0.950590
 0.002520	-0.022152	 4605.177734	 0.949232
 0.002530	-0.022953	 4465.446777	 0.948129
 0.002540	-0.023569	 4360.918457	 0.947281
 0.002550	-0.024000	 4289.196777	 0.946687
 0.002560	-0.024249	 4248.381348	 0.946345
 0.002570	-0.024319	 4237.015625	 0.946250
 0.002580	-0.024214	 4254.035156	 0.946393
 0.002590	-0.023943	 4298.716797	 0.946767
 0.002600	-0.023511	 4370.630371	 0.947360
 0.002610	-0.022929	 4469.584961	 0.948162
 0.002620	-0.022207	 4595.579102	 0.949157
 0.002630	-0.021354	 4748.740234	 0.950332
 0.002640	-0.020384	 4929.264648	 0.951670
 0.002650	-0.019309	 5137.350098	 0.953154
 0.002660	-0.018142	 5373.122559	 0.954765
 0.002670	-0.016898	 5636.554199	 0.956486
 0.002680	-0.015590	 5927.381836	 0.958296
 0.002690	-0.014233	 6245.014160	 0.960176
 0.002700	-0.012841	 6588.445312	 0.962105
 0.002710	-0.011429	 6956.167969	 0.964065
 0.002720	-0.010011	 7346.094727	 0.966035
 0.002730	-0.008601	 7755.495605	 0.967996
 0.002740	-0.007212	 8180.953125	 0.969929
 0.002750	-0.005858	 8618.345703	 0.971816
 0.002760	-0.004550	 9062.867188	 0.973640
 0.002770	-0.003301	 9509.076172	 0.975385
 0.002780	-0.002120	 9950.996094	 0.977035
 0.002790	-0.001016	 10382.248047	 0.978577
 0.002800	 0.000000	 10796.222656	 0.980000
 0.002810	 0.000923	 11186.288086	 0.981292
 0.002820	 0.001746	 11546.015625	 0.982446
 0.002830	 0.002464	 11869.416016	 0.983453
 0.002840	 0.003074	 12151.169922	 0.984308
 0.002850	 0.003573	 12386.841797	 0.985009
 0.002860	 0.003961	 12573.058594	 0.985554
 0.002870	 0.004238	 12707.644531	 0.985943
 0.002880	 0.004406	 12789.698242	 0.986178
 0.002890	 0.004466	 12819.615234	 0.986263
 0.002900	 0.004425	 12799.051758	 0.986204
 0.002910	 0.004286	 12730.825195	 0.986009
 0.002920	 0.004056	 12618.785156	 0.985686
 0.002930	 0.003742	 12467.626953	 0.985246
 0.002940	 0.003354	 12282.705078	 0.984701
 0.002950	 0.002899	 12069.818359	 0.984063
 0.002960	 0.002389	 11835.011719	 0.983347
 0.002970	 0.001832	 11584.384766	 0.982567
 0.002980	 0.001241	 11323.926758	 0.981738
 0.002990	 0.000626	 11059.379883	 0.980877
 0.003000	-0.000000	 10796.133789	 0.980000
 0.003010	-0.000626	 10539.155273	 0.979123
 0.003020	-0.001241	 10292.945312	 0.978263
 0.003030	-0.001832	 10061.528320	 0.977436
 0.003040	-0.002389	 9848.463867	 0.976659
 0.003050	-0.002900	 9656.879883	 0.975945
 0.003060	-0.003354	 9489.514648	 0.975310
 0.003070	-0.003743	 9348.775391	 0.974767
 0.003080	-0.004056	 9236.800781	 0.974330
 0.003090	-0.004286	 9155.522461	 0.974009
 0.003100	-0.004425	 9106.733398	 0.973815
 0.003110	-0.004466	 9092.139648	 0.973757
 0.003120	-0.004406	 9113.423828	 0.973842
 0.003130	-0.004238	 9172.286133	 0.974076
 0.003140	-0.003961	 9270.486328	 0.974462
 0.003150	-0.003573	 9409.871094	 0.975004
 0.003160	-0.003074	 9592.392578	 0.975701
 0.003170	-0.002464	 9820.113281	 0.976554
 0.003180	-0.001745	 10095.188477	 0.977558
 0.003190	-0.000923	 10419.846680	 0.978709
 0.003200	 0.000000	 10796.331055	 0.980000
 0.003210	 0.001017	 11226.833008	 0.981424
 0.003220	 0.002120	 11713.392578	 0.982970
 0.003230	 0.003301	 12257.769531	 0.984627
 0.003240	 0.004551	 12861.292969	 0.986381
 0.003250	 0.005858	 13524.670898	 0.988219
 0.003260	 0.007213	 14247.774414	 0.990124
 0.003270	 0.008601	 15029.397461	 0.992079
 0.003280	 0.010011	 15866.995117	 0.994066
 0.003290	 0.011429	 16756.417969	 0.996066
 0.003300	 0.012841	 17691.644531	 0.998060
 0.003310	 0.014233	 18664.550781	 1.000028
 0.003320	 0.015590	 19664.718750	 1.001948
 0.003330	 0.016898	 20679.333984	 1.003801
 0.003340	 0.018143	 21693.169922	 1.005565
 0.003350	 0.019310	 22688.718750	 1.007220
 0.003360	 0.020385	 23646.468750	 1.008746
 0.003370	 0.021355	 24545.349609	 1.010124
 0.003380	 0.022207	 25363.341797	 1.011336
 0.003390	 0.022930	 26078.255859	 1.012364
 0.003400	 0.023512	 26668.626953	 1.013193
 0.003410	 0.023943	 27114.697266	 1.013807
 0.003420	 0.024215	 27399.417969	 1.014194
 0.003430	 0.024319	 27509.398438	 1.014342
 0.003440	 0.024249	 27435.724609	 1.014243
 0.003450	 0.024000	 27174.568359	 1.013888
 0.003460	 0.023569	 26727.560547	 1.013274
 0.003470	 0.022953	 26101.837891	 1.012398
 0.003480	 0.022152	 25309.769531	 1.011258
 0.003490	 0.021166	 24368.417969	 1.009857
 0.003500	 0.019999	 23298.695312	 1.008199
 0.003510	 0.018655	 22124.353516	 1.006290
 0.003520	 0.017138	 20870.857422	 1.004140
 0.003530	 0.015457	 19564.220703	 1.001760
 0.003540	 0.013621	 18229.906250	 0.999162
 0.003550	 0.011639	 16891.849609	 0.996362
 0.003560	 0.009523	 15571.678711	 0.993377
 0.003570	 0.007286	 14288.133789	 0.990227
 0.003580	 0.004943	 13056.717773	 0.986932
 0.003590	 0.002508	 11889.573242	 0.983515
 0.003600	-0.000002	 10795.535156	 0.979998
 0.003610	-0.002569	 9780.346680	 0.976406
 0.003620	-0.005177	 8846.989258	 0.972766
 0.003630	-0.007806	 7996.075684	 0.969102
 0.003640	-0.010438	 7226.286133	 0.965441
 0.003650	-0.013053	 6534.796875	 0.961811
 0.003660	-0.015632	 5917.687500	 0.958237
 0.003670	-0.018156	 5370.307129	 0.954746
 0.003680	-0.020605	 4887.592285	 0.951366
 0.003690	-0.022960	 4464.323730	 0.948120
 0.003700	-0.025203	 4095.333740	 0.945033
 0.003710	-0.027316	 3775.664307	 0.942131
 0.003720	-0.029282	 3500.679199	 0.939434
 0.003730	-0.031085	 3266.142090	 0.936964
 0.003740	-0.032710	 3068.264893	 0.934741
 0.003750	-0.034143	 2903.733398	 0.932783
 0.003760	-0.035372	 2769.720703	 0.931105
 0.003770	-0.036385	 2663.888428	 0.929724
 0.003780	-0.037172	 2584.382324	 0.928650
 0.003790	-0.037727	 2529.828857	 0.927894
 0.003800	-0.038042	 2499.332764	 0.927464
 0.003810	-0.038114	 2492.476807	 0.927367
 0.003820	-0.037939	 2509.331055	 0.927606
 0.003830	-0.037516	 2550.466553	 0.928182
 0.003840	-0.036846	 2616.980713	 0.929094
 0.003850	-0.035933	 2710.528809	 0.930339
 0.003860	-0.034781	 2833.367188	 0.931912
 0.003870	-0.033396	 2988.406006	 0.933804
 0.003880	-0.031786	 3179.269043	 0.936005
 0.003890	-0.029962	 3410.362305	 0.938502
 0.003900	-0.027934	 3686.941895	 0.941282
 0.003910	-0.025717	 4015.187744	 0.944327
 0.003920	-0.023324	 4402.262695	 0.947618
 0.003930	-0.020772	 4856.359863	 0.951136
 0.003940	-0.018077	 5386.719238	 0.954856
 0.003950	-0.015258	 6003.600098	 0.958756
 0.003960	-0.012334	 6718.194336	 0.962809
 0.003970	-0.009325	 7542.452148	 0.966989
 0.003980	-0.006252	 8488.805664	 0.971267
 0.003990	-0.003135	 9569.763672	 0.975616
